radius (mm)	Velocity magnitude (m^3/s)
0.15000	1.9708E-8
0.17500	3.6498E-8
0.20000	6.2255E-8
0.22500	9.9709E-8
0.25000	1.5194E-7
0.27500	2.2245E-7
0.30000	3.1506E-7
0.32500	4.3393E-7
0.35000	5.8370E-7
0.37500	7.6912E-7
0.40000	9.9581E-7
0.42500	1.2692E-6
0.45000	1.5956E-6
0.47500	1.9816E-6
0.50000	2.4339E-6
